"Time (s) Run #35","Angle, 004-000 (rad) Run #35","Angle, 670-231 (rad) Run #35"
0.000,0.000,0.000
0.050,0.009,-0.031
0.100,0.013,-0.060
0.150,0.016,-0.094
0.200,0.016,-0.126
0.250,0.013,-0.157
0.300,0.006,-0.188
0.350,-0.003,-0.220
0.400,-0.013,-0.248
0.450,-0.025,-0.273
0.500,-0.041,-0.298
0.550,-0.057,-0.320
0.600,-0.072,-0.339
0.650,-0.091,-0.355
0.700,-0.107,-0.368
0.750,-0.123,-0.380
0.800,-0.138,-0.386
0.850,-0.154,-0.393
0.900,-0.163,-0.396
0.950,-0.176,-0.396
1.000,-0.182,-0.396
1.050,-0.188,-0.393
1.100,-0.192,-0.390
1.150,-0.195,-0.386
1.200,-0.192,-0.383
1.250,-0.188,-0.380
1.300,-0.179,-0.377
1.350,-0.170,-0.377
1.400,-0.157,-0.377
1.450,-0.145,-0.380
1.500,-0.132,-0.386
1.550,-0.113,-0.393
1.600,-0.097,-0.402
1.650,-0.082,-0.415
1.700,-0.063,-0.430
1.750,-0.047,-0.449
1.800,-0.031,-0.471
1.850,-0.019,-0.493
1.900,-0.006,-0.518
1.950,0.003,-0.543
2.000,0.013,-0.572
2.050,0.019,-0.600
2.100,0.022,-0.631
2.150,0.022,-0.663
2.200,0.022,-0.694
2.250,0.016,-0.723
2.300,0.009,-0.754
2.350,-5.378E-17,-0.782
2.400,-0.009,-0.807
2.450,-0.022,-0.829
2.500,-0.035,-0.851
2.550,-0.050,-0.873
2.600,-0.066,-0.889
2.650,-0.082,-0.905
2.700,-0.097,-0.917
2.750,-0.110,-0.927
2.800,-0.126,-0.933
2.850,-0.135,-0.936
2.900,-0.148,-0.939
2.950,-0.151,-0.942
3.000,-0.160,-0.942
3.050,-0.163,-0.942
3.100,-0.163,-0.939
3.150,-0.163,-0.936
3.200,-0.160,-0.936
3.250,-0.154,-0.936
3.300,-0.148,-0.936
3.350,-0.138,-0.936
3.400,-0.126,-0.939
3.450,-0.113,-0.946
3.500,-0.097,-0.952
3.550,-0.082,-0.961
3.600,-0.066,-0.974
3.650,-0.050,-0.986
3.700,-0.038,-1.005
3.750,-0.022,-1.024
3.800,-0.009,-1.043
3.850,0.003,-1.065
3.900,0.016,-1.090
3.950,0.025,-1.115
4.000,0.031,-1.144
4.050,0.035,-1.172
4.100,0.038,-1.200
4.150,0.038,-1.228
4.200,0.035,-1.257
4.250,0.028,-1.282
4.300,0.025,-1.310
4.350,0.016,-1.335
4.400,0.003,-1.357
4.450,-0.009,-1.379
4.500,-0.019,-1.398
4.550,-0.035,-1.417
4.600,-0.047,-1.433
4.650,-0.060,-1.445
4.700,-0.072,-1.455
4.750,-0.085,-1.464
4.800,-0.097,-1.470
4.850,-0.107,-1.477
4.900,-0.113,-1.480
4.950,-0.119,-1.480
5.000,-0.123,-1.480
5.050,-0.126,-1.483
5.100,-0.126,-1.483
5.150,-0.123,-1.483
5.200,-0.116,-1.483
5.250,-0.110,-1.483
5.300,-0.101,-1.486
5.350,-0.091,-1.489
5.400,-0.079,-1.492
5.450,-0.066,-1.502
5.500,-0.050,-1.508
5.550,-0.038,-1.521
5.600,-0.022,-1.533
5.650,-0.006,-1.549
5.700,0.006,-1.565
5.750,0.019,-1.587
5.800,0.031,-1.605
5.850,0.041,-1.627
5.900,0.050,-1.652
5.950,0.057,-1.681
6.000,0.063,-1.706
6.050,0.066,-1.734
6.100,0.066,-1.762
6.150,0.066,-1.788
6.200,0.063,-1.816
6.250,0.057,-1.841
6.300,0.050,-1.866
6.350,0.041,-1.891
6.400,0.031,-1.913
6.450,0.019,-1.935
6.500,0.009,-1.954
6.550,-0.003,-1.970
6.600,-0.016,-1.982
6.650,-0.028,-1.995
6.700,-0.038,-2.004
6.750,-0.050,-2.014
6.800,-0.057,-2.020
6.850,-0.066,-2.023
6.900,-0.072,-2.029
6.950,-0.075,-2.029
7.000,-0.079,-2.033
7.050,-0.079,-2.033
7.100,-0.075,-2.036
7.150,-0.072,-2.036
7.200,-0.066,-2.039
7.250,-0.060,-2.042
7.300,-0.050,-2.045
7.350,-0.038,-2.051
7.400,-0.028,-2.058
7.450,-0.013,-2.067
7.500,-7.459E-17,-2.077
7.550,0.013,-2.092
7.600,0.025,-2.105
7.650,0.038,-2.121
7.700,0.050,-2.139
7.750,0.063,-2.161
7.800,0.072,-2.183
7.850,0.082,-2.205
7.900,0.088,-2.231
7.950,0.094,-2.259
8.000,0.097,-2.284
8.050,0.101,-2.312
8.100,0.101,-2.340
8.150,0.097,-2.366
8.200,0.094,-2.394
8.250,0.088,-2.419
8.300,0.082,-2.441
8.350,0.072,-2.463
8.400,0.063,-2.485
8.450,0.050,-2.507
8.500,0.041,-2.523
8.550,0.028,-2.538
8.600,0.019,-2.551
8.650,0.006,-2.564
8.700,-0.003,-2.573
8.750,-0.013,-2.579
8.800,-0.019,-2.586
8.850,-0.025,-2.589
8.900,-0.031,-2.595
8.950,-0.035,-2.595
9.000,-0.035,-2.598
9.050,-0.035,-2.601
9.100,-0.031,-2.604
9.150,-0.025,-2.608
9.200,-0.019,-2.608
9.250,-0.009,-2.614
9.300,-7.286E-17,-2.620
9.350,0.009,-2.626
9.400,0.022,-2.636
9.450,0.035,-2.645
9.500,0.047,-2.658
9.550,0.060,-2.670
9.600,0.072,-2.689
9.650,0.082,-2.708
9.700,0.094,-2.724
9.750,0.104,-2.746
9.800,0.113,-2.771
9.850,0.119,-2.793
9.900,0.126,-2.818
9.950,0.132,-2.843
10.000,0.132,-2.868
10.050,0.132,-2.897
10.100,0.132,-2.922
10.150,0.129,-2.947
10.200,0.126,-2.969
10.250,0.116,-2.994
10.300,0.110,-3.016
10.350,0.101,-3.035
10.400,0.091,-3.054
10.450,0.082,-3.072
10.500,0.072,-3.088
10.550,0.060,-3.101
10.600,0.050,-3.110
10.650,0.041,-3.123
10.700,0.031,-3.129
10.750,0.025,-3.135
10.800,0.019,-3.142
10.850,0.013,-3.148
10.900,0.013,-3.151
10.950,0.009,-3.154
11.000,0.009,-3.154
11.050,0.013,-3.157
11.100,0.016,-3.160
11.150,0.022,-3.164
11.200,0.028,-3.170
11.250,0.038,-3.173
11.300,0.047,-3.182
11.350,0.060,-3.189
11.400,0.069,-3.198
11.450,0.082,-3.211
11.500,0.094,-3.223
11.550,0.107,-3.239
11.600,0.119,-3.258
11.650,0.129,-3.277
11.700,0.138,-3.299
11.750,0.148,-3.318
11.800,0.154,-3.343
11.850,0.160,-3.368
11.900,0.167,-3.393
11.950,0.167,-3.418
12.000,0.170,-3.443
12.050,0.170,-3.471
12.100,0.167,-3.497
12.150,0.160,-3.522
12.200,0.154,-3.547
12.250,0.148,-3.569
12.300,0.138,-3.591
12.350,0.129,-3.610
12.400,0.119,-3.629
12.450,0.110,-3.644
12.500,0.101,-3.660
12.550,0.091,-3.673
12.600,0.082,-3.682
12.650,0.072,-3.691
12.700,0.063,-3.701
12.750,0.057,-3.707
12.800,0.053,-3.713
12.850,0.050,-3.717
12.900,0.047,-3.720
12.950,0.047,-3.723
13.000,0.047,-3.726
13.050,0.050,-3.729
13.100,0.057,-3.732
13.150,0.063,-3.738
13.200,0.069,-3.745
13.250,0.079,-3.751
13.300,0.088,-3.757
13.350,0.101,-3.767
13.400,0.113,-3.779
13.450,0.123,-3.792
13.500,0.135,-3.808
13.550,0.145,-3.823
13.600,0.157,-3.842
13.650,0.167,-3.864
13.700,0.176,-3.883
13.750,0.182,-3.908
13.800,0.192,-3.933
13.850,0.195,-3.958
13.900,0.198,-3.984
13.950,0.198,-4.009
14.000,0.198,-4.034
14.050,0.198,-4.059
14.100,0.192,-4.084
14.150,0.188,-4.109
14.200,0.179,-4.131
14.250,0.173,-4.153
14.300,0.163,-4.172
14.350,0.154,-4.191
14.400,0.145,-4.207
14.450,0.135,-4.219
14.500,0.126,-4.232
14.550,0.116,-4.244
14.600,0.107,-4.254
14.650,0.097,-4.260
14.700,0.091,-4.266
14.750,0.085,-4.273
14.800,0.082,-4.279
14.850,0.079,-4.282
14.900,0.079,-4.285
14.950,0.079,-4.285
15.000,0.082,-4.291
15.050,0.085,-4.295
15.100,0.091,-4.298
15.150,0.097,-4.304
15.200,0.107,-4.310
15.250,0.116,-4.317
15.300,0.126,-4.326
15.350,0.138,-4.335
15.400,0.148,-4.348
15.450,0.160,-4.364
15.500,0.170,-4.379
15.550,0.182,-4.395
15.600,0.192,-4.414
15.650,0.201,-4.436
15.700,0.207,-4.458
15.750,0.214,-4.480
15.800,0.220,-4.505
15.850,0.223,-4.530
15.900,0.223,-4.555
15.950,0.223,-4.580
16.000,0.223,-4.606
16.050,0.217,-4.631
16.100,0.214,-4.653
16.150,0.207,-4.675
16.200,0.201,-4.697
16.250,0.192,-4.719
16.300,0.179,-4.738
16.350,0.170,-4.753
16.400,0.160,-4.769
16.450,0.151,-4.782
16.500,0.141,-4.794
16.550,0.132,-4.803
16.600,0.126,-4.810
16.650,0.116,-4.819
16.700,0.110,-4.822
16.750,0.107,-4.829
